,Time,Voltage
0,0.008265,0.0386724650949874
1,0.013770999999999999,0.0386724650949874
2,0.019472,0.0386724650949874
3,0.025092,0.0386724650949874
4,0.030593,0.0386724650949874
5,0.036446,0.0386724650949874
6,0.041930999999999996,0.0386724650949874
7,0.047602,0.035449759670405125
8,0.053015,0.045117875944151974
9,0.058797999999999996,0.06767681391622797
10,0.06419,0.09990386816205081
11,0.069812,0.10957198443579766
12,0.076149,0.1224628061341268
13,0.08154299999999999,0.13213092240787364
14,0.087045,0.12890821698329138
15,0.09235199999999999,0.13213092240787364
16,0.09788799999999999,0.12890821698329138
17,0.103183,0.13213092240787364
18,0.108683,0.12568551155870908
19,0.114049,0.12568551155870908
20,0.119431,0.11601739528496223
21,0.124897,0.08379034103913939
22,0.130245,0.048340581368734266
23,0.135758,0.029004348821240557
24,0.141103,0.041895170519569695
25,0.14661,0.0386724650949874
26,0.151942,0.0386724650949874
27,0.15742599999999998,0.0386724650949874
28,0.16282,0.035449759670405125
29,0.168477,0.0386724650949874
30,0.173918,0.0386724650949874
31,0.17929699999999998,0.0386724650949874
32,0.184779,0.0386724650949874
33,0.190151,0.0386724650949874
34,0.195604,0.0386724650949874
35,0.200937,0.0386724650949874
36,0.20644099999999999,0.0386724650949874
37,0.211751,0.041895170519569695
38,0.217244,0.0612314030670634
39,0.222548,0.08701304646372167
40,0.22805499999999998,0.10957198443579766
41,0.23338499999999998,0.1224628061341268
42,0.238896,0.12890821698329138
43,0.24421299999999999,0.12890821698329138
44,0.24956199999999998,0.13213092240787364
45,0.254994,0.13857633325703822
46,0.26033,0.13857633325703822
47,0.26581299999999997,0.13213092240787364
48,0.27114699999999997,0.13213092240787364
49,0.276632,0.12568551155870908
50,0.281935,0.11924010070954451
51,0.287422,0.08701304646372167
52,0.29270599999999997,0.05478599221789883
53,0.298237,0.041895170519569695
54,0.30391599999999996,0.0386724650949874
55,0.309338,0.0386724650949874
56,0.314783,0.0386724650949874
57,0.320135,0.035449759670405125
58,0.32561599999999996,0.035449759670405125
59,0.33094999999999997,0.0386724650949874
60,0.33647299999999997,0.0386724650949874
61,0.341796,0.0386724650949874
62,0.347313,0.0386724650949874
63,0.352618,0.0386724650949874
64,0.358099,0.035449759670405125
65,0.363392,0.0386724650949874
66,0.368907,0.0386724650949874
67,0.37421899999999997,0.0386724650949874
68,0.37964,0.041895170519569695
69,0.38511799999999996,0.05478599221789883
70,0.390418,0.09023575188830395
71,0.395868,0.11601739528496223
72,0.401202,0.13213092240787364
73,0.406701,0.12890821698329138
74,0.411997,0.13535362783245594
75,0.417504,0.1450217441062028
76,0.422805,0.13857633325703822
77,0.42833099999999996,0.13535362783245594
78,0.433735,0.13857633325703822
79,0.43916,0.1450217441062028
80,0.444637,0.13535362783245594
81,0.449984,0.13213092240787364
82,0.455466,0.10957198443579766
83,0.46082399999999996,0.0773449301899748
84,0.466311,0.048340581368734266
85,0.471586,0.0386724650949874
86,0.477162,0.0386724650949874
87,0.48261499999999996,0.0386724650949874
88,0.488123,0.0386724650949874
89,0.49342199999999997,0.0386724650949874
90,0.498959,0.035449759670405125
91,0.50427,0.0386724650949874
92,0.509635,0.0386724650949874
93,0.5151129999999999,0.0386724650949874
94,0.5204719999999999,0.035449759670405125
95,0.525972,0.0386724650949874
96,0.5313249999999999,0.0386724650949874
97,0.5368339999999999,0.0386724650949874
98,0.542137,0.0386724650949874
99,0.547625,0.0386724650949874
100,0.5529029999999999,0.045117875944151974
101,0.558419,0.058008697642481115
102,0.563882,0.09345845731288624
103,0.5692349999999999,0.11601739528496223
104,0.57468,0.12890821698329138
105,0.580033,0.13213092240787364
106,0.585522,0.13857633325703822
107,0.590847,0.13535362783245594
108,0.5963499999999999,0.1417990386816205
109,0.601658,0.13535362783245594
110,0.607151,0.13535362783245594
111,0.612443,0.12890821698329138
112,0.617915,0.12568551155870908
113,0.623203,0.11279468986037995
114,0.628728,0.08056763561455711
115,0.634046,0.051563286793316544
116,0.6394869999999999,0.041895170519569695
117,0.644983,0.0386724650949874
118,0.6503439999999999,0.035449759670405125
119,0.656023,0.0386724650949874
120,0.661388,0.0386724650949874
121,0.666918,0.0386724650949874
122,0.6722199999999999,0.0386724650949874
123,0.677689,0.0386724650949874
124,0.682994,0.0386724650949874
125,0.688601,0.035449759670405125
126,0.6939569999999999,0.0386724650949874
127,0.699359,0.0386724650949874
128,0.704832,0.0386724650949874
129,0.7101419999999999,0.0386724650949874
130,0.7155779999999999,0.048340581368734266
131,0.720905,0.07089951934081025
132,0.7264919999999999,0.10634927901121537
133,0.7318589999999999,0.13213092240787364
134,0.737408,0.13857633325703822
135,0.74271,0.1450217441062028
136,0.7482209999999999,0.1417990386816205
137,0.753894,0.1417990386816205
138,0.759362,0.1417990386816205
139,0.764909,0.13857633325703822
140,0.7704479999999999,0.13535362783245594
141,0.7759579999999999,0.12890821698329138
142,0.7813289999999999,0.11279468986037995
143,0.786862,0.0773449301899748
144,0.792171,0.051563286793316544
145,0.79765,0.041895170519569695
146,0.8029689999999999,0.0386724650949874
147,0.80856,0.0386724650949874
148,0.813955,0.0386724650949874
149,0.819349,0.0386724650949874
150,0.8248369999999999,0.035449759670405125
151,0.8301569999999999,0.0386724650949874
152,0.835599,0.0386724650949874
153,0.8409179999999999,0.041895170519569695
154,0.846398,0.0386724650949874
155,0.8517199999999999,0.035449759670405125
156,0.857192,0.0386724650949874
157,0.8624809999999999,0.0386724650949874
158,0.8679629999999999,0.035449759670405125
159,0.873232,0.045117875944151974
160,0.8787149999999999,0.06445410849164569
161,0.884015,0.10634927901121537
162,0.889409,0.12568551155870908
163,0.8948429999999999,0.13857633325703822
164,0.9001889999999999,0.1450217441062028
165,0.905716,0.1417990386816205
166,0.9110199999999999,0.13213092240787364
167,0.916492,0.1417990386816205
168,0.9218689999999999,0.13857633325703822
169,0.927592,0.13535362783245594
170,0.932916,0.12890821698329138
171,0.938419,0.1224628061341268
172,0.9438529999999999,0.09023575188830395
173,0.9492659999999999,0.0612314030670634
174,0.954723,0.041895170519569695
175,0.960096,0.041895170519569695
176,0.965564,0.0386724650949874
177,0.9709169999999999,0.0386724650949874
178,0.976393,0.0386724650949874
179,0.9816779999999999,0.035449759670405125
180,0.987157,0.0386724650949874
181,0.992775,0.0386724650949874
182,0.9988429999999999,0.0386724650949874
183,1.004972,0.0386724650949874
184,1.010633,0.0386724650949874
185,1.016179,0.0386724650949874
186,1.021503,0.0386724650949874
187,1.026981,0.0386724650949874
188,1.032446,0.045117875944151974
189,1.038041,0.07089951934081025
190,1.04347,0.10957198443579766
191,1.049007,0.1417990386816205
192,1.054475,0.1450217441062028
193,1.059865,0.14824444953078506
194,1.065313,0.1450217441062028
195,1.070645,0.1417990386816205
196,1.076167,0.1417990386816205
197,1.081532,0.13213092240787364
198,1.087021,0.13213092240787364
199,1.092322,0.12890821698329138
200,1.097797,0.11601739528496223
201,1.103082,0.09668116273746853
202,1.108556,0.0612314030670634
203,1.11402,0.045117875944151974
204,1.119458,0.0386724650949874
205,1.124904,0.0386724650949874
206,1.130223,0.0386724650949874
207,1.135688,0.0386724650949874
208,1.14099,0.0386724650949874
209,1.146448,0.0386724650949874
210,1.151722,0.035449759670405125
211,1.157214,0.0386724650949874
212,1.162529,0.0386724650949874
213,1.167993,0.0386724650949874
214,1.17327,0.0386724650949874
215,1.178846,0.035449759670405125
216,1.184473,0.0386724650949874
217,1.189894,0.0386724650949874
218,1.195399,0.045117875944151974
219,1.200736,0.06445410849164569
220,1.206241,0.09668116273746853
221,1.211554,0.12568551155870908
222,1.217127,0.13857633325703822
223,1.222436,0.13857633325703822
224,1.227913,0.1450217441062028
225,1.233193,0.1450217441062028
226,1.238745,0.1417990386816205
227,1.244043,0.13857633325703822
228,1.249419,0.13213092240787364
229,1.254889,0.12890821698329138
230,1.260246,0.1224628061341268
231,1.265674,0.10957198443579766
232,1.270979,0.08701304646372167
233,1.27647,0.0612314030670634
234,1.281781,0.045117875944151974
235,1.287491,0.0386724650949874
236,1.292876,0.035449759670405125
237,1.298398,0.0386724650949874
238,1.30381,0.0386724650949874
239,1.309256,0.0386724650949874
240,1.3147199999999999,0.0386724650949874
241,1.32006,0.035449759670405125
242,1.325521,0.0386724650949874
243,1.330898,0.0386724650949874
244,1.336469,0.0386724650949874
245,1.341759,0.0386724650949874
246,1.347237,0.035449759670405125
247,1.352525,0.0386724650949874
248,1.357996,0.0386724650949874
249,1.36327,0.0386724650949874
250,1.368816,0.045117875944151974
251,1.37411,0.06767681391622797
252,1.37945,0.10312657358663309
253,1.384894,0.12568551155870908
254,1.390209,0.1417990386816205
255,1.395687,0.14824444953078506
256,1.400977,0.14824444953078506
257,1.406474,0.1417990386816205
258,1.411768,0.1417990386816205
259,1.417253,0.13857633325703822
260,1.422529,0.12890821698329138
261,1.428049,0.12568551155870908
262,1.433579,0.1224628061341268
263,1.439163,0.11601739528496223
264,1.444643,0.10312657358663309
265,1.450088,0.08056763561455711
266,1.45557,0.0612314030670634
267,1.460893,0.048340581368734266
268,1.466385,0.041895170519569695
269,1.4716960000000001,0.0386724650949874
270,1.477214,0.0386724650949874
271,1.482533,0.0386724650949874
272,1.488033,0.035449759670405125
273,1.493322,0.0386724650949874
274,1.498854,0.035449759670405125
275,1.5041449999999998,0.0386724650949874
276,1.5095299999999998,0.035449759670405125
277,1.5150009999999998,0.0386724650949874
278,1.520298,0.0386724650949874
279,1.5257459999999998,0.0386724650949874
280,1.53112,0.035449759670405125
281,1.536611,0.0386724650949874
282,1.541929,0.0386724650949874
283,1.5476299999999998,0.035449759670405125
284,1.552983,0.035449759670405125
285,1.558474,0.045117875944151974
286,1.563879,0.058008697642481115
287,1.569269,0.09668116273746853
288,1.57474,0.1224628061341268
289,1.580085,0.12568551155870908
290,1.58555,0.13857633325703822
291,1.590909,0.13857633325703822
292,1.596401,0.13535362783245594
293,1.601705,0.13857633325703822
294,1.607306,0.12890821698329138
295,1.612663,0.1224628061341268
296,1.618458,0.1224628061341268
297,1.623917,0.11924010070954451
298,1.629303,0.11279468986037995
299,1.6348099999999999,0.10312657358663309
300,1.640175,0.09990386816205081
301,1.645648,0.08701304646372167
302,1.650987,0.07089951934081025
303,1.656491,0.051563286793316544
304,1.6618309999999998,0.041895170519569695
305,1.6673179999999999,0.0386724650949874
306,1.672625,0.0386724650949874
307,1.6781579999999998,0.0386724650949874
308,1.683435,0.0386724650949874
309,1.689057,0.0386724650949874
310,1.69472,0.0386724650949874
311,1.700108,0.0386724650949874
312,1.705572,0.035449759670405125
313,1.710894,0.035449759670405125
314,1.716393,0.0386724650949874
315,1.721683,0.0386724650949874
316,1.727198,0.0386724650949874
317,1.732521,0.0386724650949874
318,1.738036,0.0386724650949874
319,1.7433109999999998,0.0386724650949874
320,1.748826,0.0386724650949874
321,1.754566,0.0386724650949874
322,1.759896,0.045117875944151974
323,1.765412,0.051563286793316544
324,1.770807,0.07412222476539253
325,1.776284,0.10957198443579766
326,1.781561,0.12568551155870908
327,1.787051,0.13213092240787364
328,1.7923529999999999,0.12568551155870908
329,1.797828,0.13213092240787364
330,1.803108,0.12568551155870908
331,1.808644,0.1224628061341268
332,1.814032,0.11601739528496223
333,1.819458,0.11279468986037995
334,1.824895,0.10957198443579766
335,1.8302049999999999,0.10312657358663309
336,1.83569,0.10312657358663309
337,1.8409879999999998,0.09345845731288624
338,1.846523,0.08056763561455711
339,1.852056,0.06445410849164569
340,1.8575840000000001,0.048340581368734266
341,1.862884,0.041895170519569695
342,1.868418,0.0386724650949874
343,1.873843,0.0386724650949874
344,1.879232,0.0386724650949874
345,1.884732,0.0386724650949874
346,1.890153,0.035449759670405125
347,1.895617,0.035449759670405125
348,1.900967,0.0386724650949874
349,1.906459,0.0386724650949874
350,1.91175,0.0386724650949874
351,1.917224,0.0386724650949874
352,1.92251,0.0386724650949874
353,1.928016,0.0386724650949874
354,1.933374,0.0386724650949874
355,1.938917,0.0386724650949874
356,1.944216,0.0386724650949874
357,1.949593,0.022558937972075987
358,1.955035,0.041895170519569695
359,1.9603410000000001,0.048340581368734266
360,1.9658120000000001,0.07089951934081025
361,1.971145,0.09345845731288624
362,1.976643,0.11601739528496223
363,1.9819179999999998,0.11601739528496223
364,1.987407,0.11924010070954451
365,1.992705,0.11601739528496223
366,1.9982,0.11601739528496223
367,2.003463,0.11601739528496223
368,2.009002,0.10634927901121537
369,2.014495,0.10312657358663309
370,2.019845,0.09668116273746853
371,2.025298,0.09345845731288624
372,2.030624,0.09023575188830395
373,2.036101,0.08379034103913939
374,2.041396,0.07412222476539253
375,2.046888,0.0612314030670634
376,2.052186,0.045117875944151974
377,2.057789,0.041895170519569695
378,2.06331,0.035449759670405125
379,2.068894,0.0386724650949874
380,2.074196,0.0386724650949874
381,2.07959,0.0386724650949874
382,2.085025,0.0386724650949874
383,2.090346,0.035449759670405125
384,2.095855,0.0386724650949874
385,2.101244,0.0386724650949874
386,2.106739,0.0386724650949874
387,2.112038,0.035449759670405125
388,2.11754,0.0386724650949874
389,2.122836,0.035449759670405125
390,2.128302,0.0386724650949874
391,2.133582,0.0386724650949874
392,2.139106,0.0386724650949874
393,2.14456,0.0386724650949874
394,2.149917,0.041895170519569695
395,2.155396,0.051563286793316544
396,2.160688,0.0773449301899748
397,2.166126,0.09668116273746853
398,2.171608,0.10634927901121537
399,2.177325,0.11601739528496223
400,2.18262,0.10957198443579766
401,2.188137,0.10312657358663309
402,2.193426,0.09990386816205081
403,2.198965,0.10634927901121537
404,2.204274,0.09668116273746853
405,2.209675,0.09668116273746853
406,2.215128,0.09345845731288624
407,2.220486,0.08701304646372167
408,2.225953,0.08379034103913939
409,2.231286,0.08056763561455711
410,2.236744,0.07089951934081025
411,2.242012,0.058008697642481115
412,2.24748,0.041895170519569695
413,2.252782,0.041895170519569695
414,2.258244,0.0386724650949874
415,2.263503,0.045117875944151974
416,2.269015,0.0386724650949874
417,2.274406,0.035449759670405125
418,2.279769,0.0386724650949874
419,2.2852259999999998,0.0386724650949874
420,2.290548,0.035449759670405125
421,2.295992,0.0386724650949874
422,2.301304,0.035449759670405125
423,2.306797,0.0386724650949874
424,2.312059,0.035449759670405125
425,2.3174989999999998,0.0386724650949874
426,2.322764,0.0386724650949874
427,2.328247,0.0386724650949874
428,2.333548,0.0386724650949874
429,2.3390459999999997,0.0386724650949874
430,2.344478,0.0386724650949874
431,2.349802,0.045117875944151974
432,2.355222,0.0612314030670634
433,2.360523,0.08379034103913939
434,2.365975,0.09023575188830395
435,2.371308,0.09345845731288624
436,2.37677,0.09990386816205081
437,2.38206,0.09023575188830395
438,2.3875349999999997,0.09345845731288624
439,2.392808,0.09023575188830395
440,2.398273,0.09345845731288624
441,2.403547,0.09023575188830395
442,2.409047,0.09023575188830395
443,2.414532,0.08379034103913939
444,2.420127,0.08701304646372167
445,2.425623,0.08379034103913939
446,2.430942,0.0773449301899748
447,2.436425,0.07089951934081025
448,2.441709,0.0612314030670634
449,2.447189,0.045117875944151974
450,2.45249,0.041895170519569695
451,2.4579969999999998,0.0386724650949874
452,2.463321,0.041895170519569695
453,2.468877,0.0386724650949874
454,2.47417,0.0386724650949874
455,2.479521,0.0386724650949874
456,2.484971,0.0386724650949874
457,2.490282,0.0386724650949874
458,2.495761,0.0386724650949874
459,2.501102,0.0386724650949874
460,2.5065530000000003,0.035449759670405125
461,2.511823,0.035449759670405125
462,2.517312,0.0386724650949874
463,2.5227079999999997,0.0386724650949874
464,2.5283860000000002,0.0386724650949874
465,2.533854,0.035449759670405125
466,2.539266,0.0386724650949874
467,2.544697,0.0386724650949874
468,2.550046,0.0386724650949874
469,2.5555630000000003,0.045117875944151974
470,2.560925,0.051563286793316544
471,2.566377,0.06767681391622797
472,2.571659,0.08379034103913939
473,2.577144,0.09345845731288624
474,2.582401,0.09023575188830395
475,2.587841,0.09345845731288624
476,2.593112,0.09990386816205081
477,2.598607,0.09668116273746853
478,2.60395,0.09668116273746853
479,2.6093029999999997,0.09023575188830395
480,2.614771,0.09345845731288624
481,2.620082,0.09023575188830395
482,2.625505,0.09023575188830395
483,2.630817,0.08056763561455711
484,2.636299,0.08701304646372167
485,2.64185,0.08056763561455711
486,2.647361,0.0773449301899748
487,2.652653,0.0612314030670634
488,2.658128,0.05478599221789883
489,2.663391,0.045117875944151974
490,2.66887,0.0386724650949874
491,2.6741539999999997,0.0386724650949874
492,2.679543,0.0386724650949874
493,2.685197,0.0386724650949874
494,2.69057,0.035449759670405125
495,2.696067,0.0386724650949874
496,2.701405,0.0386724650949874
497,2.706889,0.035449759670405125
498,2.712173,0.0386724650949874
499,2.717701,0.0386724650949874
500,2.72301,0.035449759670405125
501,2.728544,0.0386724650949874
502,2.733945,0.0386724650949874
503,2.739274,0.0386724650949874
504,2.7446729999999997,0.0386724650949874
505,2.7500080000000002,0.0386724650949874
506,2.7557169999999998,0.0386724650949874
507,2.761084,0.0386724650949874
508,2.76654,0.0386724650949874
509,2.771814,0.0386724650949874
510,2.777304,0.0386724650949874
511,2.782568,0.041895170519569695
512,2.788042,0.048340581368734266
513,2.793306,0.058008697642481115
514,2.798828,0.0773449301899748
515,2.804179,0.08701304646372167
516,2.809642,0.09023575188830395
517,2.815105,0.08701304646372167
518,2.820404,0.09023575188830395
519,2.825839,0.09023575188830395
520,2.831143,0.09345845731288624
521,2.83663,0.09345845731288624
522,2.841904,0.09023575188830395
523,2.847403,0.09023575188830395
524,2.852715,0.09023575188830395
525,2.858209,0.08701304646372167
526,2.863485,0.09023575188830395
527,2.869017,0.08701304646372167
528,2.87453,0.09345845731288624
529,2.880115,0.08379034103913939
530,2.885611,0.08056763561455711
531,2.890961,0.07412222476539253
532,2.8964559999999997,0.0612314030670634
533,2.901765,0.048340581368734266
534,2.9072709999999997,0.041895170519569695
535,2.912552,0.0386724650949874
536,2.918055,0.041895170519569695
537,2.9233469999999997,0.035449759670405125
538,2.9288790000000002,0.0386724650949874
539,2.934184,0.0386724650949874
540,2.939562,0.0386724650949874
541,2.94505,0.0386724650949874
542,2.9503779999999997,0.0386724650949874
543,2.955825,0.035449759670405125
544,2.961194,0.0386724650949874
545,2.966687,0.0386724650949874
546,2.971974,0.035449759670405125
547,2.977461,0.0386724650949874
548,2.982738,0.035449759670405125
549,2.988202,0.0386724650949874
550,2.993476,0.0386724650949874
551,2.9989749999999997,0.0386724650949874
552,3.00441,0.0386724650949874
553,3.009773,0.0386724650949874
554,3.015259,0.032227054245822846
555,3.02056,0.0386724650949874
556,3.026004,0.0386724650949874
557,3.031321,0.0386724650949874
558,3.036814,0.041895170519569695
559,3.042132,0.045117875944151974
560,3.047819,0.05478599221789883
561,3.053245,0.07089951934081025
562,3.05881,0.08379034103913939
563,3.064453,0.09023575188830395
564,3.0699009999999998,0.09345845731288624
565,3.075676,0.09023575188830395
566,3.081267,0.09668116273746853
567,3.086916,0.09668116273746853
568,3.092296,0.10312657358663309
569,3.097911,0.09668116273746853
570,3.10321,0.09668116273746853
571,3.108738,0.09345845731288624
572,3.114052,0.09668116273746853
573,3.119433,0.09668116273746853
574,3.124898,0.09345845731288624
575,3.130271,0.09345845731288624
576,3.135779,0.09990386816205081
577,3.14111,0.09345845731288624
578,3.146587,0.09023575188830395
579,3.151886,0.09023575188830395
580,3.157323,0.08379034103913939
581,3.162617,0.0773449301899748
582,3.168215,0.0612314030670634
