,Time,Voltage
0,0.008368,0.035449759670405125
1,0.014374,0.05478599221789883
2,0.019913999999999998,0.045117875944151974
3,0.025540999999999998,0.0386724650949874
4,0.031318,0.035449759670405125
5,0.037045,0.035449759670405125
6,0.042658,0.0386724650949874
7,0.048135,0.0386724650949874
8,0.053785,0.035449759670405125
9,0.059377,0.0386724650949874
10,0.065083,0.0386724650949874
11,0.071445,0.035449759670405125
12,0.07682599999999999,0.035449759670405125
13,0.082309,0.035449759670405125
14,0.08761999999999999,0.035449759670405125
15,0.09333699999999999,0.035449759670405125
16,0.098637,0.0386724650949874
17,0.10411999999999999,0.035449759670405125
18,0.109388,0.035449759670405125
19,0.11488,0.032227054245822846
20,0.12017,0.0386724650949874
21,0.12557,0.035449759670405125
22,0.131068,0.035449759670405125
23,0.13644,0.035449759670405125
24,0.141919,0.035449759670405125
25,0.147207,0.035449759670405125
26,0.15278799999999998,0.035449759670405125
27,0.15808899999999998,0.035449759670405125
28,0.163551,0.035449759670405125
29,0.16880799999999999,0.035449759670405125
30,0.174321,0.035449759670405125
31,0.179595,0.035449759670405125
32,0.18509,0.035449759670405125
33,0.19050399999999998,0.035449759670405125
34,0.195852,0.032227054245822846
35,0.20129899999999998,0.035449759670405125
36,0.20657799999999998,0.035449759670405125
37,0.21203899999999998,0.035449759670405125
38,0.217356,0.035449759670405125
39,0.22284099999999998,0.035449759670405125
40,0.228099,0.035449759670405125
41,0.23354999999999998,0.035449759670405125
42,0.238818,0.035449759670405125
43,0.244394,0.035449759670405125
44,0.24978299999999998,0.035449759670405125
45,0.255281,0.035449759670405125
46,0.261005,0.035449759670405125
47,0.26636699999999996,0.041895170519569695
48,0.271819,0.035449759670405125
49,0.277142,0.035449759670405125
50,0.282614,0.035449759670405125
51,0.287894,0.035449759670405125
52,0.293406,0.035449759670405125
53,0.298708,0.035449759670405125
54,0.304214,0.035449759670405125
55,0.310116,0.0386724650949874
56,0.316147,0.035449759670405125
57,0.322472,0.035449759670405125
58,0.328252,0.035449759670405125
59,0.334928,0.035449759670405125
60,0.34169299999999997,0.0386724650949874
61,0.34823899999999997,0.035449759670405125
62,0.35521199999999997,0.035449759670405125
63,0.361819,0.035449759670405125
64,0.367398,0.035449759670405125
65,0.372992,0.035449759670405125
66,0.378285,0.035449759670405125
67,0.38376299999999997,0.035449759670405125
68,0.38904,0.035449759670405125
69,0.394675,0.035449759670405125
70,0.399986,0.0386724650949874
71,0.40537199999999995,0.035449759670405125
72,0.41084099999999996,0.035449759670405125
73,0.41617299999999996,0.0386724650949874
74,0.421633,0.035449759670405125
75,0.426957,0.035449759670405125
76,0.432432,0.035449759670405125
77,0.437712,0.035449759670405125
78,0.44322999999999996,0.035449759670405125
79,0.44850799999999996,0.035449759670405125
80,0.453976,0.035449759670405125
81,0.45927799999999996,0.035449759670405125
82,0.464788,0.0386724650949874
83,0.47009199999999995,0.035449759670405125
84,0.475467,0.035449759670405125
85,0.4809,0.035449759670405125
86,0.486226,0.0386724650949874
87,0.49164199999999997,0.035449759670405125
88,0.49691599999999997,0.0386724650949874
89,0.502414,0.0386724650949874
90,0.507707,0.035449759670405125
91,0.513201,0.035449759670405125
92,0.5184679999999999,0.035449759670405125
93,0.524088,0.035449759670405125
94,0.529463,0.035449759670405125
95,0.534984,0.035449759670405125
96,0.540264,0.035449759670405125
97,0.5456529999999999,0.035449759670405125
98,0.551148,0.035449759670405125
99,0.556458,0.035449759670405125
100,0.561908,0.035449759670405125
101,0.567237,0.0386724650949874
102,0.572765,0.035449759670405125
103,0.578059,0.0386724650949874
104,0.583519,0.035449759670405125
105,0.5888059999999999,0.035449759670405125
106,0.5942879999999999,0.035449759670405125
107,0.5995429999999999,0.0386724650949874
108,0.605065,0.035449759670405125
109,0.610521,0.035449759670405125
110,0.615829,0.035449759670405125
111,0.621265,0.035449759670405125
112,0.6265839999999999,0.035449759670405125
113,0.6321019999999999,0.035449759670405125
114,0.637537,0.035449759670405125
115,0.643048,0.035449759670405125
116,0.6483439999999999,0.035449759670405125
117,0.653821,0.035449759670405125
118,0.659082,0.035449759670405125
119,0.664581,0.035449759670405125
120,0.6700039999999999,0.035449759670405125
121,0.6753969999999999,0.035449759670405125
122,0.680843,0.035449759670405125
123,0.6862309999999999,0.035449759670405125
124,0.6916979999999999,0.035449759670405125
125,0.696974,0.035449759670405125
126,0.702432,0.035449759670405125
127,0.7077129999999999,0.035449759670405125
128,0.71315,0.035449759670405125
129,0.718391,0.035449759670405125
130,0.7238629999999999,0.035449759670405125
131,0.729161,0.035449759670405125
132,0.734657,0.035449759670405125
133,0.73995,0.0386724650949874
134,0.745332,0.035449759670405125
135,0.7507849999999999,0.035449759670405125
136,0.7560749999999999,0.032227054245822846
137,0.761496,0.035449759670405125
138,0.766805,0.035449759670405125
139,0.772278,0.035449759670405125
140,0.777532,0.035449759670405125
141,0.783006,0.035449759670405125
142,0.788292,0.035449759670405125
143,0.793786,0.035449759670405125
144,0.799067,0.035449759670405125
145,0.804542,0.035449759670405125
146,0.8099989999999999,0.0386724650949874
147,0.815608,0.0386724650949874
148,0.8211229999999999,0.035449759670405125
149,0.826484,0.048340581368734266
150,0.831919,0.035449759670405125
151,0.837233,0.035449759670405125
152,0.842761,0.035449759670405125
153,0.8480559999999999,0.035449759670405125
154,0.85363,0.0386724650949874
155,0.858935,0.0386724650949874
156,0.8643799999999999,0.035449759670405125
157,0.869775,0.035449759670405125
158,0.875184,0.032227054245822846
159,0.880621,0.035449759670405125
160,0.8859539999999999,0.035449759670405125
161,0.8914019999999999,0.035449759670405125
162,0.896739,0.035449759670405125
163,0.902253,0.035449759670405125
164,0.90752,0.035449759670405125
165,0.9129929999999999,0.035449759670405125
166,0.918277,0.035449759670405125
167,0.92377,0.035449759670405125
168,0.9292729999999999,0.035449759670405125
169,0.934897,0.035449759670405125
170,0.9401879999999999,0.035449759670405125
171,0.945538,0.035449759670405125
172,0.950978,0.035449759670405125
173,0.95631,0.035449759670405125
174,0.9617789999999999,0.035449759670405125
175,0.967127,0.035449759670405125
176,0.9726349999999999,0.035449759670405125
177,0.9779279999999999,0.035449759670405125
178,0.983394,0.035449759670405125
179,0.9887579999999999,0.035449759670405125
180,0.9947509999999999,0.035449759670405125
181,1.000743,0.0386724650949874
182,1.006559,0.035449759670405125
183,1.012164,0.035449759670405125
184,1.017496,0.035449759670405125
185,1.023001,0.035449759670405125
186,1.028342,0.035449759670405125
187,1.033811,0.035449759670405125
188,1.039075,0.035449759670405125
189,1.044585,0.035449759670405125
190,1.050033,0.035449759670405125
191,1.055401,0.035449759670405125
192,1.060827,0.035449759670405125
193,1.0662,0.035449759670405125
194,1.071612,0.035449759670405125
195,1.076889,0.035449759670405125
196,1.082319,0.035449759670405125
197,1.087577,0.0386724650949874
198,1.093181,0.035449759670405125
199,1.098542,0.035449759670405125
200,1.104012,0.0386724650949874
201,1.109273,0.035449759670405125
202,1.1148,0.035449759670405125
203,1.120246,0.035449759670405125
204,1.125739,0.035449759670405125
205,1.1312470000000001,0.035449759670405125
206,1.136551,0.0386724650949874
207,1.142017,0.035449759670405125
208,1.147329,0.035449759670405125
209,1.152987,0.035449759670405125
210,1.15832,0.035449759670405125
211,1.163786,0.0386724650949874
212,1.169051,0.035449759670405125
213,1.174644,0.035449759670405125
214,1.179941,0.035449759670405125
215,1.18531,0.035449759670405125
216,1.190769,0.035449759670405125
217,1.196067,0.035449759670405125
218,1.201485,0.035449759670405125
219,1.206799,0.035449759670405125
220,1.212293,0.035449759670405125
221,1.217603,0.035449759670405125
222,1.223096,0.035449759670405125
223,1.228375,0.035449759670405125
224,1.2340659999999999,0.035449759670405125
225,1.23945,0.035449759670405125
226,1.245002,0.035449759670405125
227,1.250434,0.035449759670405125
228,1.255792,0.035449759670405125
229,1.261229,0.035449759670405125
230,1.266559,0.035449759670405125
231,1.27206,0.035449759670405125
232,1.277418,0.035449759670405125
233,1.282941,0.035449759670405125
234,1.288254,0.035449759670405125
235,1.293728,0.0386724650949874
236,1.2989899999999999,0.035449759670405125
237,1.304462,0.035449759670405125
238,1.309924,0.035449759670405125
239,1.315454,0.035449759670405125
240,1.320924,0.035449759670405125
241,1.326253,0.0193362325474937
242,1.331722,0.035449759670405125
243,1.337035,0.035449759670405125
244,1.34252,0.035449759670405125
245,1.347814,0.035449759670405125
246,1.353325,0.035449759670405125
247,1.358627,0.035449759670405125
248,1.36408,0.035449759670405125
249,1.369354,0.035449759670405125
250,1.374879,0.035449759670405125
251,1.38019,0.0386724650949874
252,1.3858169999999999,0.035449759670405125
253,1.3913419999999999,0.035449759670405125
254,1.396633,0.035449759670405125
255,1.402102,0.035449759670405125
256,1.407406,0.0386724650949874
257,1.412903,0.035449759670405125
258,1.418168,0.035449759670405125
259,1.423643,0.035449759670405125
260,1.428949,0.035449759670405125
261,1.434481,0.032227054245822846
262,1.439895,0.035449759670405125
263,1.445338,0.035449759670405125
264,1.450803,0.035449759670405125
265,1.456103,0.035449759670405125
266,1.4615369999999999,0.035449759670405125
267,1.4668619999999999,0.035449759670405125
268,1.472327,0.035449759670405125
269,1.477606,0.035449759670405125
270,1.483089,0.035449759670405125
271,1.4884279999999999,0.032227054245822846
272,1.494155,0.035449759670405125
273,1.499426,0.035449759670405125
274,1.504962,0.035449759670405125
275,1.510254,0.035449759670405125
276,1.515588,0.041895170519569695
277,1.521024,0.035449759670405125
278,1.526373,0.035449759670405125
279,1.531858,0.035449759670405125
280,1.537158,0.0386724650949874
281,1.542618,0.035449759670405125
282,1.5478990000000001,0.035449759670405125
283,1.553357,0.035449759670405125
284,1.5586,0.035449759670405125
285,1.5640589999999999,0.035449759670405125
286,1.569575,0.035449759670405125
287,1.57511,0.035449759670405125
288,1.580509,0.035449759670405125
289,1.5858430000000001,0.035449759670405125
290,1.591303,0.035449759670405125
291,1.596593,0.0386724650949874
292,1.6020379999999999,0.035449759670405125
293,1.607389,0.035449759670405125
294,1.613125,0.035449759670405125
295,1.618415,0.035449759670405125
296,1.623899,0.035449759670405125
297,1.629187,0.035449759670405125
298,1.6346829999999999,0.035449759670405125
299,1.6399659999999998,0.035449759670405125
300,1.645373,0.0386724650949874
301,1.650899,0.035449759670405125
302,1.656261,0.035449759670405125
303,1.661719,0.035449759670405125
304,1.6670729999999998,0.035449759670405125
305,1.672516,0.035449759670405125
306,1.6777769999999999,0.035449759670405125
307,1.683214,0.035449759670405125
308,1.688478,0.035449759670405125
309,1.693953,0.035449759670405125
310,1.699227,0.035449759670405125
311,1.704734,0.0386724650949874
312,1.710023,0.035449759670405125
313,1.7153559999999999,0.035449759670405125
314,1.720767,0.035449759670405125
315,1.726092,0.0386724650949874
316,1.731584,0.035449759670405125
317,1.736862,0.035449759670405125
318,1.742321,0.035449759670405125
319,1.747609,0.035449759670405125
320,1.7530700000000001,0.035449759670405125
321,1.758322,0.035449759670405125
322,1.763767,0.035449759670405125
323,1.769025,0.035449759670405125
324,1.774502,0.035449759670405125
325,1.779977,0.035449759670405125
326,1.785495,0.035449759670405125
327,1.7909389999999998,0.035449759670405125
328,1.7962319999999998,0.0386724650949874
329,1.801653,0.0386724650949874
330,1.806986,0.0386724650949874
331,1.812472,0.0386724650949874
332,1.81773,0.0386724650949874
333,1.823224,0.041895170519569695
334,1.828528,0.048340581368734266
335,1.834012,0.07089951934081025
336,1.8392870000000001,0.09023575188830395
337,1.8447719999999999,0.09668116273746853
338,1.8500459999999999,0.09668116273746853
339,1.855373,0.09990386816205081
340,1.860795,0.09668116273746853
341,1.8661249999999998,0.09345845731288624
342,1.871604,0.09023575188830395
343,1.8769,0.08701304646372167
344,1.882346,0.08701304646372167
345,1.887627,0.08379034103913939
346,1.8931019999999998,0.07412222476539253
347,1.898424,0.051563286793316544
348,1.903884,0.035449759670405125
349,1.90942,0.035449759670405125
350,1.914955,0.035449759670405125
351,1.920237,0.035449759670405125
352,1.925625,0.035449759670405125
353,1.931083,0.041895170519569695
354,1.936399,0.08701304646372167
355,1.9418609999999998,0.09023575188830395
356,1.947187,0.0386724650949874
357,1.952683,0.0386724650949874
358,1.9579719999999998,0.08701304646372167
359,1.963431,0.035449759670405125
360,1.968694,0.058008697642481115
361,1.974174,0.045117875944151974
362,1.979436,0.041895170519569695
363,1.9849359999999998,0.048340581368734266
364,1.990236,0.045117875944151974
365,1.9955509999999999,0.041895170519569695
366,2.000972,0.06767681391622797
367,2.006312,0.0386724650949874
368,2.01176,0.07412222476539253
369,2.017319,0.0386724650949874
370,2.022871,0.05478599221789883
371,2.028152,0.06445410849164569
372,2.033625,0.0386724650949874
373,2.038909,0.058008697642481115
374,2.044413,0.058008697642481115
375,2.049851,0.0386724650949874
376,2.055309,0.048340581368734266
377,2.060737,0.06767681391622797
378,2.066078,0.0386724650949874
379,2.071547,0.041895170519569695
380,2.07682,0.07089951934081025
381,2.082258,0.045117875944151974
382,2.087533,0.0386724650949874
383,2.093005,0.051563286793316544
384,2.098283,0.07089951934081025
385,2.103714,0.0386724650949874
386,2.10897,0.0386724650949874
387,2.114454,0.06445410849164569
388,2.119842,0.06445410849164569
389,2.125222,0.0386724650949874
390,2.1307679999999998,0.041895170519569695
391,2.136132,0.048340581368734266
392,2.141562,0.07089951934081025
393,2.14687,0.058008697642481115
394,2.152334,0.035449759670405125
395,2.157672,0.041895170519569695
396,2.163137,0.06445410849164569
397,2.1684039999999998,0.06445410849164569
398,2.173859,0.048340581368734266
399,2.179141,0.041895170519569695
400,2.18463,0.045117875944151974
401,2.190037,0.0773449301899748
402,2.195404,0.06445410849164569
403,2.200818,0.048340581368734266
404,2.206126,0.0386724650949874
405,2.21158,0.041895170519569695
406,2.216954,0.0612314030670634
407,2.222727,0.07089951934081025
408,2.228067,0.0612314030670634
409,2.233606,0.045117875944151974
410,2.238881,0.041895170519569695
411,2.244362,0.045117875944151974
412,2.249732,0.06767681391622797
413,2.255141,0.07089951934081025
414,2.260619,0.05478599221789883
415,2.266043,0.035449759670405125
416,2.271488,0.041895170519569695
417,2.276803,0.048340581368734266
418,2.282261,0.0773449301899748
419,2.287515,0.0612314030670634
420,2.293038,0.041895170519569695
421,2.29833,0.041895170519569695
422,2.303781,0.045117875944151974
423,2.3090289999999998,0.07089951934081025
424,2.31462,0.06445410849164569
425,2.320023,0.048340581368734266
426,2.3254099999999998,0.041895170519569695
427,2.330841,0.041895170519569695
428,2.336171,0.06767681391622797
429,2.341597,0.06767681391622797
430,2.34687,0.045117875944151974
431,2.352341,0.041895170519569695
432,2.357675,0.048340581368734266
433,2.363302,0.07412222476539253
434,2.3687300000000002,0.06445410849164569
435,2.37427,0.045117875944151974
436,2.37954,0.041895170519569695
437,2.385059,0.045117875944151974
438,2.390474,0.07412222476539253
439,2.395846,0.06445410849164569
440,2.401364,0.041895170519569695
441,2.406707,0.041895170519569695
442,2.412146,0.045117875944151974
443,2.417431,0.07412222476539253
444,2.422914,0.06445410849164569
445,2.428169,0.0386724650949874
446,2.4336,0.0386724650949874
447,2.43888,0.048340581368734266
448,2.444358,0.07412222476539253
449,2.449741,0.058008697642481115
450,2.455132,0.0386724650949874
451,2.460577,0.041895170519569695
452,2.465879,0.05478599221789883
453,2.471327,0.07412222476539253
454,2.476624,0.058008697642481115
455,2.48208,0.0386724650949874
456,2.4873849999999997,0.041895170519569695
457,2.492852,0.045117875944151974
458,2.498134,0.0773449301899748
459,2.503606,0.07089951934081025
460,2.508901,0.041895170519569695
461,2.514564,0.041895170519569695
462,2.519953,0.045117875944151974
463,2.525337,0.06445410849164569
464,2.53079,0.07089951934081025
465,2.536142,0.058008697642481115
466,2.541577,0.041895170519569695
467,2.546876,0.045117875944151974
468,2.55234,0.051563286793316544
469,2.557635,0.07412222476539253
470,2.5631399999999998,0.06445410849164569
471,2.568428,0.041895170519569695
472,2.573917,0.041895170519569695
473,2.579217,0.048340581368734266
474,2.5846999999999998,0.07089951934081025
475,2.589981,0.06767681391622797
476,2.595293,0.045117875944151974
477,2.600701,0.041895170519569695
478,2.6060369999999997,0.045117875944151974
479,2.611498,0.0612314030670634
480,2.616857,0.07089951934081025
481,2.622613,0.0612314030670634
482,2.627926,0.041895170519569695
483,2.633367,0.045117875944151974
484,2.638641,0.048340581368734266
485,2.64414,0.0773449301899748
486,2.6494429999999998,0.06767681391622797
487,2.655065,0.05478599221789883
488,2.660483,0.041895170519569695
489,2.6658720000000002,0.0386724650949874
490,2.671338,0.051563286793316544
491,2.6766360000000002,0.07089951934081025
492,2.68207,0.06767681391622797
493,2.687375,0.0386724650949874
494,2.6929629999999998,0.041895170519569695
495,2.698223,0.048340581368734266
496,2.703672,0.08056763561455711
497,2.708946,0.0612314030670634
498,2.714411,0.041895170519569695
499,2.7197899999999997,0.045117875944151974
500,2.725207,0.0612314030670634
501,2.730895,0.07089951934081025
502,2.736247,0.045117875944151974
503,2.741716,0.041895170519569695
504,2.747051,0.048340581368734266
505,2.752534,0.0773449301899748
506,2.757802,0.05478599221789883
507,2.763296,0.041895170519569695
508,2.768591,0.045117875944151974
509,2.774082,0.07412222476539253
510,2.77935,0.058008697642481115
511,2.784827,0.041895170519569695
512,2.790104,0.045117875944151974
513,2.795432,0.0773449301899748
514,2.800854,0.06445410849164569
515,2.806187,0.041895170519569695
516,2.811646,0.041895170519569695
517,2.816924,0.07412222476539253
518,2.822386,0.07089951934081025
519,2.827674,0.041895170519569695
520,2.833151,0.045117875944151974
521,2.838393,0.07089951934081025
522,2.8438660000000002,0.06767681391622797
523,2.849137,0.041895170519569695
524,2.854618,0.041895170519569695
525,2.859954,0.058008697642481115
526,2.865357,0.07089951934081025
527,2.870848,0.048340581368734266
528,2.8761479999999997,0.041895170519569695
529,2.881574,0.051563286793316544
530,2.886892,0.07089951934081025
531,2.89237,0.05478599221789883
532,2.897625,0.041895170519569695
533,2.903096,0.048340581368734266
534,2.908382,0.07412222476539253
535,2.913857,0.058008697642481115
536,2.9191,0.041895170519569695
537,2.924589,0.048340581368734266
538,2.930158,0.0773449301899748
539,2.9356,0.0612314030670634
540,2.941041,0.041895170519569695
541,2.946371,0.045117875944151974
542,2.95183,0.0773449301899748
543,2.957134,0.058008697642481115
544,2.96265,0.045117875944151974
545,2.967945,0.048340581368734266
546,2.9734629999999997,0.0773449301899748
547,2.978742,0.0612314030670634
548,2.984217,0.041895170519569695
549,2.989487,0.048340581368734266
550,2.994981,0.08056763561455711
551,3.000254,0.041895170519569695
552,3.00565,0.041895170519569695
553,3.011104,0.05478599221789883
554,3.016376,0.07089951934081025
555,3.021825,0.041895170519569695
556,3.027202,0.045117875944151974
557,3.032675,0.0773449301899748
558,3.037937,0.05478599221789883
559,3.043395,0.041895170519569695
560,3.048662,0.058008697642481115
561,3.054128,0.07412222476539253
562,3.059379,0.041895170519569695
563,3.064896,0.048340581368734266
564,3.070229,0.0773449301899748
565,3.075548,0.05478599221789883
566,3.080952,0.041895170519569695
